# f [Hz], U_c [V], a [s], b [s]
3.141592653589793258e+02 9.200000000000001066e+00 8.999999999999999754e-04 2.000000000000000042e-02
6.283185307179586516e+02 8.599999999999999645e+00 7.999999999999999299e-04 1.000000000000000021e-02
9.424777960769379206e+02 7.600000000000000533e+00 7.199999999999999369e-04 6.666666666666667095e-03
1.256637061435917303e+03 6.799999999999999822e+00 6.599999999999999964e-04 5.000000000000000104e-03
1.570796326794896459e+03 6.100000000000000533e+00 5.999999999999999474e-04 4.000000000000000083e-03
1.884955592153875841e+03 5.400000000000000355e+00 5.599999999999999509e-04 3.333333333333333547e-03
2.199114857512854996e+03 4.679999999999999716e+00 5.039999999999999992e-04 2.857142857142857140e-03
2.513274122871834606e+03 4.280000000000000249e+00 4.479999999999999933e-04 2.500000000000000052e-03
2.827433388230813762e+03 3.879999999999999893e+00 4.159999999999999744e-04 2.222222222222222220e-03
3.141592653589792917e+03 3.520000000000000018e+00 3.799999999999999667e-04 2.000000000000000042e-03
3.455751918948772527e+03 3.240000000000000213e+00 3.519999999999999908e-04 1.818181818181818180e-03
3.769911184307751682e+03 3.000000000000000000e+00 3.319999999999999926e-04 1.666666666666666774e-03
4.084070449666730838e+03 2.800000000000000266e+00 3.119999999999999944e-04 1.538461538461538460e-03
4.398229715025709993e+03 2.600000000000000089e+00 2.959999999999999849e-04 1.428571428571428570e-03
4.712388980384689603e+03 2.459999999999999964e+00 2.839999999999999643e-04 1.333333333333333289e-03
5.026548245743669213e+03 2.319999999999999840e+00 2.680000000000000090e-04 1.250000000000000026e-03
5.340707511102647914e+03 2.180000000000000160e+00 2.559999999999999884e-04 1.176470588235293798e-03
5.654866776461627524e+03 2.060000000000000053e+00 2.439999999999999949e-04 1.111111111111111110e-03
5.969026041820607134e+03 1.959999999999999964e+00 2.339999999999999958e-04 1.052631578947368180e-03
6.283185307179585834e+03 1.880000000000000115e+00 2.239999999999999966e-04 1.000000000000000021e-03
6.911503837897545054e+03 1.719999999999999973e+00 2.039999999999999984e-04 9.090909090909090901e-04
7.539822368615503365e+03 1.590000000000000080e+00 1.920000000000000049e-04 8.333333333333333868e-04
8.168140899333461675e+03 1.439999999999999947e+00 1.779999999999999898e-04 7.692307692307692301e-04
8.796459430051419986e+03 1.350000000000000089e+00 1.640000000000000019e-04 7.142857142857142851e-04
9.424777960769379206e+03 1.270000000000000018e+00 1.540000000000000028e-04 6.666666666666666444e-04
1.005309649148733843e+04 1.189999999999999947e+00 1.440000000000000036e-04 6.250000000000000130e-04
1.068141502220529583e+04 1.110000000000000098e+00 1.379999999999999933e-04 5.882352941176468989e-04
1.130973355292325505e+04 1.050000000000000044e+00 1.299999999999999886e-04 5.555555555555555551e-04
1.193805208364121427e+04 1.010000000000000009e+00 1.240000000000000054e-04 5.263157894736840902e-04
1.256637061435917167e+04 9.500000000000000666e-01 1.179999999999999951e-04 5.000000000000000104e-04
1.570796326794896595e+04 7.700000000000000178e-01 9.679999999999999477e-05 3.999999999999999650e-04
1.884955592153875841e+04 6.350000000000000089e-01 7.999999999999999299e-05 3.333333333333333222e-04
2.199114857512855087e+04 5.500000000000000444e-01 6.959999999999999770e-05 2.857142857142857357e-04
2.513274122871834334e+04 4.799999999999999822e-01 6.159999999999999298e-05 2.500000000000000052e-04
2.827433388230813944e+04 4.279999999999999916e-01 5.360000000000000181e-05 2.222222222222222058e-04
3.141592653589793190e+04 3.840000000000000080e-01 4.920000000000000328e-05 1.999999999999999825e-04
3.769911184307751682e+04 3.140000000000000013e-01 4.119999999999999856e-05 1.666666666666666611e-04
4.398229715025710175e+04 2.720000000000000195e-01 3.520000000000000180e-05 1.428571428571428679e-04
5.026548245743668667e+04 2.380000000000000171e-01 3.119999999999999944e-05 1.250000000000000026e-04
5.654866776461627887e+04 2.119999999999999940e-01 2.739999999999999855e-05 1.111111111111111029e-04
6.283185307179586380e+04 1.900000000000000022e-01 2.439999999999999678e-05 9.999999999999999124e-05
7.853981633974482247e+04 1.499999999999999944e-01 1.980000000000000016e-05 7.999999999999999299e-05
9.424777960769379570e+04 1.280000000000000027e-01 1.619999999999999736e-05 6.666666666666666986e-05
1.256637061435917276e+05 9.600000000000000200e-02 1.219999999999999839e-05 4.999999999999999562e-05
1.570796326794896449e+05 7.699999999999999900e-02 9.759999999999999728e-06 3.999999999999999650e-05
1.884955592153875914e+05 6.400000000000000133e-02 8.239999999999999034e-06 3.333333333333333493e-05
2.199114857512855087e+05 5.500000000000000028e-02 6.959999999999999431e-06 2.857142857142856747e-05
2.513274122871834552e+05 4.879999999999999616e-02 6.079999999999999386e-06 2.499999999999999781e-05
2.827433388230814016e+05 4.320000000000000229e-02 5.360000000000000350e-06 2.222222222222222329e-05
3.141592653589792899e+05 3.880000000000000115e-02 4.799999999999999783e-06 1.999999999999999825e-05
4.712388980384689639e+05 2.600000000000000228e-02 3.239999999999999896e-06 1.333333333333333329e-05
6.283185307179585798e+05 1.960000000000000284e-02 2.499999999999999781e-06 9.999999999999999124e-06
