# f [Hz], U_c [V], a [s], b [s]
5.000000000000000000e+01 1.840000000000000213e+01 8.999999999999999754e-04 2.000000000000000042e-02
1.000000000000000000e+02 1.719999999999999929e+01 7.999999999999999299e-04 1.000000000000000021e-02
1.500000000000000000e+02 1.520000000000000107e+01 7.199999999999999369e-04 6.666666666666667095e-03
2.000000000000000000e+02 1.359999999999999964e+01 6.599999999999999964e-04 5.000000000000000104e-03
2.500000000000000000e+02 1.220000000000000107e+01 5.999999999999999474e-04 4.000000000000000083e-03
3.000000000000000000e+02 1.080000000000000071e+01 5.599999999999999509e-04 3.333333333333333547e-03
3.500000000000000000e+02 9.359999999999999432e+00 5.039999999999999992e-04 2.857142857142857140e-03
4.000000000000000000e+02 8.560000000000000497e+00 4.479999999999999933e-04 2.500000000000000052e-03
4.500000000000000000e+02 7.759999999999999787e+00 4.159999999999999744e-04 2.222222222222222220e-03
5.000000000000000000e+02 7.040000000000000036e+00 3.799999999999999667e-04 2.000000000000000042e-03
5.500000000000000000e+02 6.480000000000000426e+00 3.519999999999999908e-04 1.818181818181818180e-03
6.000000000000000000e+02 6.000000000000000000e+00 3.319999999999999926e-04 1.666666666666666774e-03
6.500000000000000000e+02 5.600000000000000533e+00 3.119999999999999944e-04 1.538461538461538460e-03
7.000000000000000000e+02 5.200000000000000178e+00 2.959999999999999849e-04 1.428571428571428570e-03
7.500000000000000000e+02 4.919999999999999929e+00 2.839999999999999643e-04 1.333333333333333289e-03
8.000000000000000000e+02 4.639999999999999680e+00 2.680000000000000090e-04 1.250000000000000026e-03
8.500000000000000000e+02 4.360000000000000320e+00 2.559999999999999884e-04 1.176470588235293798e-03
9.000000000000000000e+02 4.120000000000000107e+00 2.439999999999999949e-04 1.111111111111111110e-03
9.500000000000000000e+02 3.919999999999999929e+00 2.339999999999999958e-04 1.052631578947368180e-03
1.000000000000000000e+03 3.760000000000000231e+00 2.239999999999999966e-04 1.000000000000000021e-03
1.100000000000000000e+03 3.439999999999999947e+00 2.039999999999999984e-04 9.090909090909090901e-04
1.200000000000000000e+03 3.180000000000000160e+00 1.920000000000000049e-04 8.333333333333333868e-04
1.300000000000000000e+03 2.879999999999999893e+00 1.779999999999999898e-04 7.692307692307692301e-04
1.400000000000000000e+03 2.700000000000000178e+00 1.640000000000000019e-04 7.142857142857142851e-04
1.500000000000000000e+03 2.540000000000000036e+00 1.540000000000000028e-04 6.666666666666666444e-04
1.600000000000000000e+03 2.379999999999999893e+00 1.440000000000000036e-04 6.250000000000000130e-04
1.700000000000000000e+03 2.220000000000000195e+00 1.379999999999999933e-04 5.882352941176468989e-04
1.800000000000000000e+03 2.100000000000000089e+00 1.299999999999999886e-04 5.555555555555555551e-04
1.900000000000000000e+03 2.020000000000000018e+00 1.240000000000000054e-04 5.263157894736840902e-04
2.000000000000000000e+03 1.900000000000000133e+00 1.179999999999999951e-04 5.000000000000000104e-04
2.500000000000000000e+03 1.540000000000000036e+00 9.679999999999999477e-05 3.999999999999999650e-04
3.000000000000000000e+03 1.270000000000000018e+00 7.999999999999999299e-05 3.333333333333333222e-04
3.500000000000000000e+03 1.100000000000000089e+00 6.959999999999999770e-05 2.857142857142857357e-04
4.000000000000000000e+03 9.599999999999999645e-01 6.159999999999999298e-05 2.500000000000000052e-04
4.500000000000000000e+03 8.559999999999999831e-01 5.360000000000000181e-05 2.222222222222222058e-04
5.000000000000000000e+03 7.680000000000000160e-01 4.920000000000000328e-05 1.999999999999999825e-04
6.000000000000000000e+03 6.280000000000000027e-01 4.119999999999999856e-05 1.666666666666666611e-04
7.000000000000000000e+03 5.440000000000000391e-01 3.520000000000000180e-05 1.428571428571428679e-04
8.000000000000000000e+03 4.760000000000000342e-01 3.119999999999999944e-05 1.250000000000000026e-04
9.000000000000000000e+03 4.239999999999999880e-01 2.739999999999999855e-05 1.111111111111111029e-04
1.000000000000000000e+04 3.800000000000000044e-01 2.439999999999999678e-05 9.999999999999999124e-05
1.250000000000000000e+04 2.999999999999999889e-01 1.980000000000000016e-05 7.999999999999999299e-05
1.500000000000000000e+04 2.560000000000000053e-01 1.619999999999999736e-05 6.666666666666666986e-05
2.000000000000000000e+04 1.920000000000000040e-01 1.219999999999999839e-05 4.999999999999999562e-05
2.500000000000000000e+04 1.539999999999999980e-01 9.759999999999999728e-06 3.999999999999999650e-05
3.000000000000000000e+04 1.280000000000000027e-01 8.239999999999999034e-06 3.333333333333333493e-05
3.500000000000000000e+04 1.100000000000000006e-01 6.959999999999999431e-06 2.857142857142856747e-05
4.000000000000000000e+04 9.759999999999999232e-02 6.079999999999999386e-06 2.499999999999999781e-05
4.500000000000000000e+04 8.640000000000000457e-02 5.360000000000000350e-06 2.222222222222222329e-05
5.000000000000000000e+04 7.760000000000000231e-02 4.799999999999999783e-06 1.999999999999999825e-05
7.500000000000000000e+04 5.200000000000000455e-02 3.239999999999999896e-06 1.333333333333333329e-05
1.000000000000000000e+05 3.920000000000000567e-02 2.499999999999999781e-06 9.999999999999999124e-06
